%name:Al
%note:Aluminum fractive index on wavelength from 0.2066um to 12.4um with step of 1nm
%how to call:getIndex('Al',wavelength)
0.2066,0.12285,2.2879
0.2067,0.12296,2.2892
0.2068,0.12307,2.2905
0.2069,0.12318,2.2918
0.207,0.12330,2.2931
0.2071,0.12341,2.2944
0.2072,0.12352,2.2957
0.2073,0.12363,2.2970
0.2074,0.12374,2.2983
0.2075,0.12386,2.2996
0.2076,0.12397,2.3009
0.2077,0.12408,2.3022
0.2078,0.12419,2.3035
0.2079,0.12430,2.3048
0.208,0.12442,2.3061
0.2081,0.12453,2.3074
0.2082,0.12464,2.3087
0.2083,0.12475,2.3100
0.2084,0.12487,2.3113
0.2085,0.12498,2.3126
0.2086,0.12509,2.3139
0.2087,0.12520,2.3152
0.2088,0.12531,2.3165
0.2089,0.12543,2.3178
0.209,0.12554,2.3191
0.2091,0.12565,2.3204
0.2092,0.12576,2.3217
0.2093,0.12587,2.3230
0.2094,0.12599,2.3243
0.2095,0.12610,2.3256
0.2096,0.12621,2.3269
0.2097,0.12632,2.3282
0.2098,0.12644,2.3295
0.2099,0.12655,2.3308
0.21,0.12666,2.3321
0.2101,0.12677,2.3334
0.2102,0.12688,2.3347
0.2103,0.12700,2.3361
0.2104,0.12711,2.3374
0.2105,0.12722,2.3387
0.2106,0.12733,2.3400
0.2107,0.12744,2.3413
0.2108,0.12756,2.3426
0.2109,0.12767,2.3439
0.211,0.12778,2.3452
0.2111,0.12790,2.3465
0.2112,0.12801,2.3478
0.2113,0.12812,2.3491
0.2114,0.12824,2.3504
0.2115,0.12835,2.3517
0.2116,0.12846,2.3529
0.2117,0.12858,2.3542
0.2118,0.12869,2.3555
0.2119,0.12880,2.3568
0.212,0.12892,2.3581
0.2121,0.12903,2.3594
0.2122,0.12914,2.3607
0.2123,0.12926,2.3620
0.2124,0.12937,2.3633
0.2125,0.12948,2.3646
0.2126,0.12960,2.3659
0.2127,0.12971,2.3672
0.2128,0.12982,2.3685
0.2129,0.12994,2.3698
0.213,0.13005,2.3711
0.2131,0.13017,2.3724
0.2132,0.13028,2.3737
0.2133,0.13039,2.3750
0.2134,0.13051,2.3763
0.2135,0.13062,2.3776
0.2136,0.13073,2.3789
0.2137,0.13085,2.3802
0.2138,0.13096,2.3815
0.2139,0.13107,2.3828
0.214,0.13119,2.3841
0.2141,0.13130,2.3854
0.2142,0.13141,2.3867
0.2143,0.13153,2.3880
0.2144,0.13164,2.3893
0.2145,0.13175,2.3906
0.2146,0.13187,2.3919
0.2147,0.13198,2.3932
0.2148,0.13209,2.3945
0.2149,0.13221,2.3958
0.215,0.13232,2.3971
0.2151,0.13243,2.3984
0.2152,0.13255,2.3997
0.2153,0.13266,2.4010
0.2154,0.13278,2.4023
0.2155,0.13289,2.4035
0.2156,0.13301,2.4048
0.2157,0.13312,2.4061
0.2158,0.13324,2.4074
0.2159,0.13335,2.4087
0.216,0.13347,2.4100
0.2161,0.13358,2.4113
0.2162,0.13370,2.4126
0.2163,0.13381,2.4139
0.2164,0.13393,2.4152
0.2165,0.13404,2.4165
0.2166,0.13416,2.4178
0.2167,0.13427,2.4191
0.2168,0.13439,2.4204
0.2169,0.13450,2.4216
0.217,0.13461,2.4229
0.2171,0.13473,2.4242
0.2172,0.13484,2.4255
0.2173,0.13496,2.4268
0.2174,0.13507,2.4281
0.2175,0.13519,2.4294
0.2176,0.13530,2.4307
0.2177,0.13542,2.4320
0.2178,0.13553,2.4333
0.2179,0.13565,2.4346
0.218,0.13576,2.4359
0.2181,0.13588,2.4372
0.2182,0.13599,2.4385
0.2183,0.13611,2.4398
0.2184,0.13622,2.4410
0.2185,0.13634,2.4423
0.2186,0.13645,2.4436
0.2187,0.13657,2.4449
0.2188,0.13668,2.4462
0.2189,0.13680,2.4475
0.219,0.13691,2.4488
0.2191,0.13703,2.4501
0.2192,0.13714,2.4514
0.2193,0.13726,2.4527
0.2194,0.13737,2.4540
0.2195,0.13749,2.4553
0.2196,0.13760,2.4566
0.2197,0.13772,2.4579
0.2198,0.13783,2.4591
0.2199,0.13795,2.4604
0.22,0.13807,2.4617
0.2201,0.13818,2.4630
0.2202,0.13830,2.4643
0.2203,0.13842,2.4656
0.2204,0.13853,2.4669
0.2205,0.13865,2.4682
0.2206,0.13876,2.4695
0.2207,0.13888,2.4707
0.2208,0.13900,2.4720
0.2209,0.13911,2.4733
0.221,0.13923,2.4746
0.2211,0.13935,2.4759
0.2212,0.13946,2.4772
0.2213,0.13958,2.4785
0.2214,0.13970,2.4798
0.2215,0.13981,2.4811
0.2216,0.13993,2.4823
0.2217,0.14005,2.4836
0.2218,0.14016,2.4849
0.2219,0.14028,2.4862
0.222,0.14040,2.4875
0.2221,0.14051,2.4888
0.2222,0.14063,2.4901
0.2223,0.14074,2.4914
0.2224,0.14086,2.4927
0.2225,0.14098,2.4939
0.2226,0.14109,2.4952
0.2227,0.14121,2.4965
0.2228,0.14133,2.4978
0.2229,0.14144,2.4991
0.223,0.14156,2.5004
0.2231,0.14168,2.5017
0.2232,0.14179,2.5030
0.2233,0.14191,2.5043
0.2234,0.14203,2.5055
0.2235,0.14214,2.5068
0.2236,0.14226,2.5081
0.2237,0.14237,2.5094
0.2238,0.14249,2.5107
0.2239,0.14261,2.5120
0.224,0.14272,2.5133
0.2241,0.14284,2.5146
0.2242,0.14296,2.5159
0.2243,0.14307,2.5171
0.2244,0.14319,2.5184
0.2245,0.14331,2.5197
0.2246,0.14343,2.5210
0.2247,0.14355,2.5223
0.2248,0.14366,2.5236
0.2249,0.14378,2.5249
0.225,0.14390,2.5261
0.2251,0.14402,2.5274
0.2252,0.14414,2.5287
0.2253,0.14426,2.5300
0.2254,0.14437,2.5313
0.2255,0.14449,2.5326
0.2256,0.14461,2.5338
0.2257,0.14473,2.5351
0.2258,0.14485,2.5364
0.2259,0.14496,2.5377
0.226,0.14508,2.5390
0.2261,0.14520,2.5403
0.2262,0.14532,2.5416
0.2263,0.14544,2.5428
0.2264,0.14555,2.5441
0.2265,0.14567,2.5454
0.2266,0.14579,2.5467
0.2267,0.14591,2.5480
0.2268,0.14603,2.5493
0.2269,0.14615,2.5506
0.227,0.14626,2.5518
0.2271,0.14638,2.5531
0.2272,0.14650,2.5544
0.2273,0.14662,2.5557
0.2274,0.14674,2.5570
0.2275,0.14685,2.5583
0.2276,0.14697,2.5595
0.2277,0.14709,2.5608
0.2278,0.14721,2.5621
0.2279,0.14733,2.5634
0.228,0.14745,2.5647
0.2281,0.14756,2.5660
0.2282,0.14768,2.5673
0.2283,0.14780,2.5685
0.2284,0.14792,2.5698
0.2285,0.14804,2.5711
0.2286,0.14815,2.5724
0.2287,0.14827,2.5737
0.2288,0.14839,2.5750
0.2289,0.14851,2.5763
0.229,0.14863,2.5775
0.2291,0.14875,2.5788
0.2292,0.14887,2.5801
0.2293,0.14899,2.5814
0.2294,0.14911,2.5827
0.2295,0.14923,2.5839
0.2296,0.14935,2.5852
0.2297,0.14947,2.5865
0.2298,0.14959,2.5878
0.2299,0.14971,2.5891
0.23,0.14983,2.5903
0.2301,0.14995,2.5916
0.2302,0.15007,2.5929
0.2303,0.15019,2.5942
0.2304,0.15031,2.5955
0.2305,0.15043,2.5968
0.2306,0.15055,2.5980
0.2307,0.15067,2.5993
0.2308,0.15079,2.6006
0.2309,0.15091,2.6019
0.231,0.15103,2.6032
0.2311,0.15115,2.6044
0.2312,0.15127,2.6057
0.2313,0.15139,2.6070
0.2314,0.15151,2.6083
0.2315,0.15163,2.6096
0.2316,0.15175,2.6109
0.2317,0.15187,2.6121
0.2318,0.15199,2.6134
0.2319,0.15211,2.6147
0.232,0.15223,2.6160
0.2321,0.15235,2.6173
0.2322,0.15247,2.6185
0.2323,0.15259,2.6198
0.2324,0.15271,2.6211
0.2325,0.15283,2.6224
0.2326,0.15295,2.6237
0.2327,0.15307,2.6249
0.2328,0.15319,2.6262
0.2329,0.15331,2.6275
0.233,0.15343,2.6288
0.2331,0.15355,2.6301
0.2332,0.15367,2.6314
0.2333,0.15379,2.6326
0.2334,0.15391,2.6339
0.2335,0.15403,2.6352
0.2336,0.15415,2.6365
0.2337,0.15427,2.6378
0.2338,0.15439,2.6390
0.2339,0.15451,2.6403
0.234,0.15464,2.6416
0.2341,0.15476,2.6429
0.2342,0.15488,2.6442
0.2343,0.15500,2.6454
0.2344,0.15513,2.6467
0.2345,0.15525,2.6480
0.2346,0.15537,2.6493
0.2347,0.15549,2.6505
0.2348,0.15561,2.6518
0.2349,0.15574,2.6531
0.235,0.15586,2.6544
0.2351,0.15598,2.6557
0.2352,0.15610,2.6569
0.2353,0.15622,2.6582
0.2354,0.15635,2.6595
0.2355,0.15647,2.6608
0.2356,0.15659,2.6621
0.2357,0.15671,2.6633
0.2358,0.15684,2.6646
0.2359,0.15696,2.6659
0.236,0.15708,2.6672
0.2361,0.15720,2.6684
0.2362,0.15732,2.6697
0.2363,0.15745,2.6710
0.2364,0.15757,2.6723
0.2365,0.15769,2.6736
0.2366,0.15781,2.6748
0.2367,0.15793,2.6761
0.2368,0.15806,2.6774
0.2369,0.15818,2.6787
0.237,0.15830,2.6799
0.2371,0.15842,2.6812
0.2372,0.15855,2.6825
0.2373,0.15867,2.6838
0.2374,0.15879,2.6851
0.2375,0.15891,2.6863
0.2376,0.15903,2.6876
0.2377,0.15916,2.6889
0.2378,0.15928,2.6902
0.2379,0.15940,2.6915
0.238,0.15952,2.6927
0.2381,0.15964,2.6940
0.2382,0.15977,2.6953
0.2383,0.15989,2.6966
0.2384,0.16001,2.6978
0.2385,0.16013,2.6991
0.2386,0.16026,2.7004
0.2387,0.16038,2.7017
0.2388,0.16050,2.7029
0.2389,0.16063,2.7042
0.239,0.16075,2.7055
0.2391,0.16088,2.7068
0.2392,0.16100,2.7081
0.2393,0.16113,2.7093
0.2394,0.16125,2.7106
0.2395,0.16138,2.7119
0.2396,0.16150,2.7132
0.2397,0.16162,2.7144
0.2398,0.16175,2.7157
0.2399,0.16187,2.7170
0.24,0.16200,2.7183
0.2401,0.16212,2.7195
0.2402,0.16225,2.7208
0.2403,0.16237,2.7221
0.2404,0.16250,2.7234
0.2405,0.16262,2.7246
0.2406,0.16274,2.7259
0.2407,0.16287,2.7272
0.2408,0.16299,2.7285
0.2409,0.16312,2.7297
0.241,0.16324,2.7310
0.2411,0.16337,2.7323
0.2412,0.16349,2.7336
0.2413,0.16362,2.7348
0.2414,0.16374,2.7361
0.2415,0.16386,2.7374
0.2416,0.16399,2.7387
0.2417,0.16411,2.7399
0.2418,0.16424,2.7412
0.2419,0.16436,2.7425
0.242,0.16449,2.7438
0.2421,0.16461,2.7450
0.2422,0.16474,2.7463
0.2423,0.16486,2.7476
0.2424,0.16498,2.7489
0.2425,0.16511,2.7501
0.2426,0.16523,2.7514
0.2427,0.16536,2.7527
0.2428,0.16548,2.7540
0.2429,0.16561,2.7552
0.243,0.16573,2.7565
0.2431,0.16586,2.7578
0.2432,0.16598,2.7591
0.2433,0.16610,2.7603
0.2434,0.16623,2.7616
0.2435,0.16635,2.7629
0.2436,0.16648,2.7642
0.2437,0.16661,2.7654
0.2438,0.16673,2.7667
0.2439,0.16686,2.7680
0.244,0.16699,2.7693
0.2441,0.16711,2.7705
0.2442,0.16724,2.7718
0.2443,0.16737,2.7731
0.2444,0.16749,2.7743
0.2445,0.16762,2.7756
0.2446,0.16775,2.7769
0.2447,0.16788,2.7782
0.2448,0.16800,2.7794
0.2449,0.16813,2.7807
0.245,0.16826,2.7820
0.2451,0.16838,2.7833
0.2452,0.16851,2.7845
0.2453,0.16864,2.7858
0.2454,0.16876,2.7871
0.2455,0.16889,2.7883
0.2456,0.16902,2.7896
0.2457,0.16914,2.7909
0.2458,0.16927,2.7922
0.2459,0.16940,2.7934
0.246,0.16953,2.7947
0.2461,0.16965,2.7960
0.2462,0.16978,2.7973
0.2463,0.16991,2.7985
0.2464,0.17003,2.7998
0.2465,0.17016,2.8011
0.2466,0.17029,2.8023
0.2467,0.17041,2.8036
0.2468,0.17054,2.8049
0.2469,0.17067,2.8062
0.247,0.17080,2.8074
0.2471,0.17092,2.8087
0.2472,0.17105,2.8100
0.2473,0.17118,2.8113
0.2474,0.17130,2.8125
0.2475,0.17143,2.8138
0.2476,0.17156,2.8151
0.2477,0.17168,2.8163
0.2478,0.17181,2.8176
0.2479,0.17194,2.8189
0.248,0.17207,2.8202
0.2481,0.17219,2.8214
0.2482,0.17232,2.8227
0.2483,0.17245,2.8240
0.2484,0.17257,2.8253
0.2485,0.17270,2.8265
0.2486,0.17283,2.8278
0.2487,0.17296,2.8291
0.2488,0.17309,2.8303
0.2489,0.17322,2.8316
0.249,0.17335,2.8329
0.2491,0.17348,2.8341
0.2492,0.17360,2.8354
0.2493,0.17373,2.8367
0.2494,0.17386,2.8380
0.2495,0.17399,2.8392
0.2496,0.17412,2.8405
0.2497,0.17425,2.8418
0.2498,0.17438,2.8430
0.2499,0.17451,2.8443
0.25,0.17464,2.8456
0.2501,0.17477,2.8469
0.2502,0.17490,2.8481
0.2503,0.17503,2.8494
0.2504,0.17516,2.8507
0.2505,0.17529,2.8519
0.2506,0.17542,2.8532
0.2507,0.17555,2.8545
0.2508,0.17568,2.8557
0.2509,0.17581,2.8570
0.251,0.17594,2.8583
0.2511,0.17607,2.8596
0.2512,0.17620,2.8608
0.2513,0.17633,2.8621
0.2514,0.17646,2.8634
0.2515,0.17659,2.8646
0.2516,0.17672,2.8659
0.2517,0.17685,2.8672
0.2518,0.17698,2.8684
0.2519,0.17711,2.8697
0.252,0.17724,2.8710
0.2521,0.17737,2.8723
0.2522,0.17750,2.8735
0.2523,0.17763,2.8748
0.2524,0.17776,2.8761
0.2525,0.17789,2.8773
0.2526,0.17802,2.8786
0.2527,0.17815,2.8799
0.2528,0.17828,2.8811
0.2529,0.17841,2.8824
0.253,0.17854,2.8837
0.2531,0.17866,2.8850
0.2532,0.17879,2.8862
0.2533,0.17892,2.8875
0.2534,0.17905,2.8888
0.2535,0.17918,2.8900
0.2536,0.17931,2.8913
0.2537,0.17944,2.8926
0.2538,0.17957,2.8938
0.2539,0.17971,2.8951
0.254,0.17984,2.8964
0.2541,0.17997,2.8977
0.2542,0.18010,2.8989
0.2543,0.18024,2.9002
0.2544,0.18037,2.9015
0.2545,0.18050,2.9027
0.2546,0.18064,2.9040
0.2547,0.18077,2.9053
0.2548,0.18090,2.9065
0.2549,0.18103,2.9078
0.255,0.18117,2.9091
0.2551,0.18130,2.9103
0.2552,0.18143,2.9116
0.2553,0.18156,2.9129
0.2554,0.18170,2.9141
0.2555,0.18183,2.9154
0.2556,0.18196,2.9167
0.2557,0.18210,2.9179
0.2558,0.18223,2.9192
0.2559,0.18236,2.9205
0.256,0.18249,2.9217
0.2561,0.18263,2.9230
0.2562,0.18276,2.9243
0.2563,0.18289,2.9255
0.2564,0.18303,2.9268
0.2565,0.18316,2.9281
0.2566,0.18329,2.9294
0.2567,0.18342,2.9306
0.2568,0.18356,2.9319
0.2569,0.18369,2.9332
0.257,0.18382,2.9344
0.2571,0.18395,2.9357
0.2572,0.18409,2.9370
0.2573,0.18422,2.9382
0.2574,0.18435,2.9395
0.2575,0.18449,2.9408
0.2576,0.18462,2.9420
0.2577,0.18475,2.9433
0.2578,0.18488,2.9446
0.2579,0.18502,2.9458
0.258,0.18515,2.9471
0.2581,0.18528,2.9484
0.2582,0.18542,2.9496
0.2583,0.18555,2.9509
0.2584,0.18568,2.9522
0.2585,0.18581,2.9534
0.2586,0.18595,2.9547
0.2587,0.18608,2.9560
0.2588,0.18621,2.9572
0.2589,0.18634,2.9585
0.259,0.18648,2.9598
0.2591,0.18661,2.9611
0.2592,0.18675,2.9623
0.2593,0.18688,2.9636
0.2594,0.18702,2.9648
0.2595,0.18716,2.9661
0.2596,0.18729,2.9674
0.2597,0.18743,2.9686
0.2598,0.18756,2.9699
0.2599,0.18770,2.9712
0.26,0.18784,2.9724
0.2601,0.18797,2.9737
0.2602,0.18811,2.9750
0.2603,0.18824,2.9762
0.2604,0.18838,2.9775
0.2605,0.18852,2.9788
0.2606,0.18865,2.9800
0.2607,0.18879,2.9813
0.2608,0.18892,2.9826
0.2609,0.18906,2.9838
0.261,0.18920,2.9851
0.2611,0.18933,2.9864
0.2612,0.18947,2.9876
0.2613,0.18960,2.9889
0.2614,0.18974,2.9902
0.2615,0.18988,2.9914
0.2616,0.19001,2.9927
0.2617,0.19015,2.9940
0.2618,0.19028,2.9952
0.2619,0.19042,2.9965
0.262,0.19056,2.9978
0.2621,0.19069,2.9990
0.2622,0.19083,3.0003
0.2623,0.19097,3.0016
0.2624,0.19110,3.0028
0.2625,0.19124,3.0041
0.2626,0.19137,3.0054
0.2627,0.19151,3.0066
0.2628,0.19165,3.0079
0.2629,0.19178,3.0092
0.263,0.19192,3.0104
0.2631,0.19205,3.0117
0.2632,0.19219,3.0130
0.2633,0.19233,3.0142
0.2634,0.19246,3.0155
0.2635,0.19260,3.0168
0.2636,0.19273,3.0180
0.2637,0.19287,3.0193
0.2638,0.19301,3.0205
0.2639,0.19314,3.0218
0.264,0.19328,3.0231
0.2641,0.19341,3.0243
0.2642,0.19355,3.0256
0.2643,0.19369,3.0269
0.2644,0.19382,3.0281
0.2645,0.19396,3.0294
0.2646,0.19410,3.0307
0.2647,0.19424,3.0319
0.2648,0.19438,3.0332
0.2649,0.19452,3.0345
0.265,0.19466,3.0357
0.2651,0.19480,3.0370
0.2652,0.19494,3.0383
0.2653,0.19508,3.0395
0.2654,0.19522,3.0408
0.2655,0.19536,3.0420
0.2656,0.19550,3.0433
0.2657,0.19564,3.0446
0.2658,0.19578,3.0458
0.2659,0.19592,3.0471
0.266,0.19606,3.0484
0.2661,0.19619,3.0496
0.2662,0.19633,3.0509
0.2663,0.19647,3.0522
0.2664,0.19661,3.0534
0.2665,0.19675,3.0547
0.2666,0.19689,3.0560
0.2667,0.19703,3.0572
0.2668,0.19717,3.0585
0.2669,0.19731,3.0597
0.267,0.19745,3.0610
0.2671,0.19759,3.0623
0.2672,0.19773,3.0635
0.2673,0.19787,3.0648
0.2674,0.19801,3.0661
0.2675,0.19815,3.0673
0.2676,0.19829,3.0686
0.2677,0.19843,3.0699
0.2678,0.19857,3.0711
0.2679,0.19871,3.0724
0.268,0.19885,3.0736
0.2681,0.19899,3.0749
0.2682,0.19913,3.0762
0.2683,0.19927,3.0774
0.2684,0.19941,3.0787
0.2685,0.19955,3.0800
0.2686,0.19969,3.0812
0.2687,0.19983,3.0825
0.2688,0.19997,3.0838
0.2689,0.20011,3.0850
0.269,0.20024,3.0863
0.2691,0.20038,3.0876
0.2692,0.20052,3.0888
0.2693,0.20066,3.0901
0.2694,0.20080,3.0913
0.2695,0.20094,3.0926
0.2696,0.20108,3.0939
0.2697,0.20122,3.0951
0.2698,0.20136,3.0964
0.2699,0.20150,3.0977
0.27,0.20164,3.0989
0.2701,0.20179,3.1002
0.2702,0.20193,3.1015
0.2703,0.20207,3.1027
0.2704,0.20222,3.1040
0.2705,0.20236,3.1052
0.2706,0.20250,3.1065
0.2707,0.20265,3.1078
0.2708,0.20279,3.1090
0.2709,0.20293,3.1103
0.271,0.20308,3.1116
0.2711,0.20322,3.1128
0.2712,0.20337,3.1141
0.2713,0.20351,3.1153
0.2714,0.20365,3.1166
0.2715,0.20380,3.1179
0.2716,0.20394,3.1191
0.2717,0.20408,3.1204
0.2718,0.20423,3.1216
0.2719,0.20437,3.1229
0.272,0.20451,3.1242
0.2721,0.20466,3.1254
0.2722,0.20480,3.1267
0.2723,0.20494,3.1280
0.2724,0.20509,3.1292
0.2725,0.20523,3.1305
0.2726,0.20537,3.1317
0.2727,0.20552,3.1330
0.2728,0.20566,3.1343
0.2729,0.20581,3.1355
0.273,0.20595,3.1368
0.2731,0.20609,3.1381
0.2732,0.20624,3.1393
0.2733,0.20638,3.1406
0.2734,0.20652,3.1418
0.2735,0.20667,3.1431
0.2736,0.20681,3.1444
0.2737,0.20695,3.1456
0.2738,0.20710,3.1469
0.2739,0.20724,3.1482
0.274,0.20738,3.1494
0.2741,0.20753,3.1507
0.2742,0.20767,3.1519
0.2743,0.20781,3.1532
0.2744,0.20796,3.1545
0.2745,0.20810,3.1557
0.2746,0.20825,3.1570
0.2747,0.20839,3.1583
0.2748,0.20853,3.1595
0.2749,0.20868,3.1608
0.275,0.20882,3.1620
0.2751,0.20896,3.1633
0.2752,0.20911,3.1646
0.2753,0.20925,3.1658
0.2754,0.20939,3.1671
0.2755,0.20954,3.1683
0.2756,0.20968,3.1696
0.2757,0.20983,3.1709
0.2758,0.20998,3.1721
0.2759,0.21012,3.1734
0.276,0.21027,3.1747
0.2761,0.21042,3.1759
0.2762,0.21057,3.1772
0.2763,0.21072,3.1784
0.2764,0.21086,3.1797
0.2765,0.21101,3.1810
0.2766,0.21116,3.1822
0.2767,0.21131,3.1835
0.2768,0.21145,3.1847
0.2769,0.21160,3.1860
0.277,0.21175,3.1873
0.2771,0.21190,3.1885
0.2772,0.21204,3.1898
0.2773,0.21219,3.1910
0.2774,0.21234,3.1923
0.2775,0.21249,3.1936
0.2776,0.21264,3.1948
0.2777,0.21278,3.1961
0.2778,0.21293,3.1973
0.2779,0.21308,3.1986
0.278,0.21323,3.1999
0.2781,0.21337,3.2011
0.2782,0.21352,3.2024
0.2783,0.21367,3.2036
0.2784,0.21382,3.2049
0.2785,0.21397,3.2062
0.2786,0.21411,3.2074
0.2787,0.21426,3.2087
0.2788,0.21441,3.2099
0.2789,0.21456,3.2112
0.279,0.21470,3.2125
0.2791,0.21485,3.2137
0.2792,0.21500,3.2150
0.2793,0.21515,3.2162
0.2794,0.21529,3.2175
0.2795,0.21544,3.2188
0.2796,0.21559,3.2200
0.2797,0.21574,3.2213
0.2798,0.21589,3.2225
0.2799,0.21603,3.2238
0.28,0.21618,3.2251
0.2801,0.21633,3.2263
0.2802,0.21648,3.2276
0.2803,0.21662,3.2289
0.2804,0.21677,3.2301
0.2805,0.21692,3.2314
0.2806,0.21707,3.2326
0.2807,0.21721,3.2339
0.2808,0.21736,3.2352
0.2809,0.21751,3.2364
0.281,0.21766,3.2377
0.2811,0.21781,3.2389
0.2812,0.21795,3.2402
0.2813,0.21810,3.2415
0.2814,0.21825,3.2427
0.2815,0.21841,3.2440
0.2816,0.21856,3.2452
0.2817,0.21871,3.2465
0.2818,0.21886,3.2478
0.2819,0.21901,3.2490
0.282,0.21917,3.2503
0.2821,0.21932,3.2515
0.2822,0.21947,3.2528
0.2823,0.21962,3.2540
0.2824,0.21977,3.2553
0.2825,0.21993,3.2566
0.2826,0.22008,3.2578
0.2827,0.22023,3.2591
0.2828,0.22038,3.2603
0.2829,0.22054,3.2616
0.283,0.22069,3.2629
0.2831,0.22084,3.2641
0.2832,0.22099,3.2654
0.2833,0.22114,3.2666
0.2834,0.22130,3.2679
0.2835,0.22145,3.2691
0.2836,0.22160,3.2704
0.2837,0.22175,3.2717
0.2838,0.22191,3.2729
0.2839,0.22206,3.2742
0.284,0.22221,3.2754
0.2841,0.22236,3.2767
0.2842,0.22251,3.2780
0.2843,0.22267,3.2792
0.2844,0.22282,3.2805
0.2845,0.22297,3.2817
0.2846,0.22312,3.2830
0.2847,0.22328,3.2843
0.2848,0.22343,3.2855
0.2849,0.22358,3.2868
0.285,0.22373,3.2880
0.2851,0.22388,3.2893
0.2852,0.22404,3.2905
0.2853,0.22419,3.2918
0.2854,0.22434,3.2931
0.2855,0.22449,3.2943
0.2856,0.22464,3.2956
0.2857,0.22480,3.2968
0.2858,0.22495,3.2981
0.2859,0.22510,3.2994
0.286,0.22525,3.3006
0.2861,0.22541,3.3019
0.2862,0.22556,3.3031
0.2863,0.22571,3.3044
0.2864,0.22586,3.3057
0.2865,0.22601,3.3069
0.2866,0.22617,3.3082
0.2867,0.22632,3.3094
0.2868,0.22647,3.3107
0.2869,0.22662,3.3119
0.287,0.22678,3.3132
0.2871,0.22693,3.3145
0.2872,0.22708,3.3157
0.2873,0.22724,3.3170
0.2874,0.22740,3.3182
0.2875,0.22755,3.3195
0.2876,0.22771,3.3208
0.2877,0.22787,3.3220
0.2878,0.22802,3.3233
0.2879,0.22818,3.3245
0.288,0.22834,3.3258
0.2881,0.22850,3.3270
0.2882,0.22865,3.3283
0.2883,0.22881,3.3296
0.2884,0.22897,3.3308
0.2885,0.22912,3.3321
0.2886,0.22928,3.3333
0.2887,0.22944,3.3346
0.2888,0.22959,3.3358
0.2889,0.22975,3.3371
0.289,0.22991,3.3384
0.2891,0.23007,3.3396
0.2892,0.23022,3.3409
0.2893,0.23038,3.3421
0.2894,0.23054,3.3434
0.2895,0.23069,3.3446
0.2896,0.23085,3.3459
0.2897,0.23101,3.3472
0.2898,0.23116,3.3484
0.2899,0.23132,3.3497
0.29,0.23148,3.3509
0.2901,0.23164,3.3522
0.2902,0.23179,3.3534
0.2903,0.23195,3.3547
0.2904,0.23211,3.3560
0.2905,0.23226,3.3572
0.2906,0.23242,3.3585
0.2907,0.23258,3.3597
0.2908,0.23273,3.3610
0.2909,0.23289,3.3622
0.291,0.23305,3.3635
0.2911,0.23321,3.3648
0.2912,0.23336,3.3660
0.2913,0.23352,3.3673
0.2914,0.23368,3.3685
0.2915,0.23383,3.3698
0.2916,0.23399,3.3710
0.2917,0.23415,3.3723
0.2918,0.23430,3.3736
0.2919,0.23446,3.3748
0.292,0.23462,3.3761
0.2921,0.23477,3.3773
0.2922,0.23493,3.3786
0.2923,0.23509,3.3798
0.2924,0.23525,3.3811
0.2925,0.23540,3.3824
0.2926,0.23556,3.3836
0.2927,0.23572,3.3849
0.2928,0.23587,3.3861
0.2929,0.23603,3.3874
0.293,0.23619,3.3886
0.2931,0.23634,3.3899
0.2932,0.23651,3.3912
0.2933,0.23667,3.3924
0.2934,0.23683,3.3937
0.2935,0.23699,3.3949
0.2936,0.23715,3.3962
0.2937,0.23732,3.3974
0.2938,0.23748,3.3987
0.2939,0.23764,3.3999
0.294,0.23780,3.4012
0.2941,0.23797,3.4025
0.2942,0.23813,3.4037
0.2943,0.23829,3.4050
0.2944,0.23845,3.4062
0.2945,0.23861,3.4075
0.2946,0.23878,3.4087
0.2947,0.23894,3.4100
0.2948,0.23910,3.4112
0.2949,0.23926,3.4125
0.295,0.23942,3.4138
0.2951,0.23959,3.4150
0.2952,0.23975,3.4163
0.2953,0.23991,3.4175
0.2954,0.24007,3.4188
0.2955,0.24024,3.4200
0.2956,0.24040,3.4213
0.2957,0.24056,3.4225
0.2958,0.24072,3.4238
0.2959,0.24088,3.4251
0.296,0.24105,3.4263
0.2961,0.24121,3.4276
0.2962,0.24137,3.4288
0.2963,0.24153,3.4301
0.2964,0.24169,3.4313
0.2965,0.24186,3.4326
0.2966,0.24202,3.4338
0.2967,0.24218,3.4351
0.2968,0.24234,3.4364
0.2969,0.24250,3.4376
0.297,0.24267,3.4389
0.2971,0.24283,3.4401
0.2972,0.24299,3.4414
