%name:Au
%note:Gold fractive index on wavelength from 0.207um to 12.4um with step of 1nm
%how to call:getIndex('Au',wavelength)
0.207,1.2556,1.9849
0.208,1.2641,1.9825
0.209,1.2726,1.9800
0.21,1.2810,1.9776
0.211,1.2894,1.9751
0.212,1.2967,1.9730
0.213,1.3039,1.9708
0.214,1.3112,1.9687
0.215,1.3185,1.9666
0.216,1.3251,1.9648
0.217,1.3314,1.9631
0.218,1.3378,1.9615
0.219,1.3441,1.9598
0.22,1.3503,1.9583
0.221,1.3559,1.9572
0.222,1.3615,1.9560
0.223,1.3672,1.9549
0.224,1.3728,1.9538
0.225,1.3781,1.9531
0.226,1.3833,1.9526
0.227,1.3885,1.9520
0.228,1.3937,1.9515
0.229,1.3989,1.9509
0.23,1.4039,1.9509
0.231,1.4088,1.9508
0.232,1.4138,1.9508
0.233,1.4188,1.9507
0.234,1.4237,1.9508
0.235,1.4287,1.9511
0.236,1.4336,1.9514
0.237,1.4385,1.9517
0.238,1.4435,1.9521
0.239,1.4485,1.9525
0.24,1.4535,1.9530
0.241,1.4585,1.9536
0.242,1.4636,1.9541
0.243,1.4686,1.9546
0.244,1.4737,1.9552
0.245,1.4789,1.9558
0.246,1.4841,1.9563
0.247,1.4893,1.9569
0.248,1.4945,1.9575
0.249,1.4997,1.9580
0.25,1.5051,1.9584
0.251,1.5105,1.9588
0.252,1.5158,1.9593
0.253,1.5212,1.9597
0.254,1.5266,1.9601
0.255,1.5321,1.9602
0.256,1.5375,1.9603
0.257,1.5430,1.9604
0.258,1.5485,1.9605
0.259,1.5540,1.9606
0.26,1.5595,1.9603
0.261,1.5650,1.9599
0.262,1.5705,1.9596
0.263,1.5760,1.9593
0.264,1.5815,1.9589
0.265,1.5869,1.9583
0.266,1.5923,1.9574
0.267,1.5977,1.9565
0.268,1.6031,1.9556
0.269,1.6084,1.9547
0.27,1.6138,1.9538
0.271,1.6189,1.9523
0.272,1.6241,1.9508
0.273,1.6292,1.9493
0.274,1.6343,1.9478
0.275,1.6394,1.9464
0.276,1.6444,1.9446
0.277,1.6490,1.9425
0.278,1.6537,1.9404
0.279,1.6584,1.9383
0.28,1.6631,1.9362
0.281,1.6678,1.9341
0.282,1.6721,1.9316
0.283,1.6762,1.9289
0.284,1.6803,1.9263
0.285,1.6845,1.9236
0.286,1.6886,1.9209
0.287,1.6927,1.9182
0.288,1.6962,1.9151
0.289,1.6995,1.9119
0.29,1.7029,1.9088
0.291,1.7063,1.9056
0.292,1.7097,1.9024
0.293,1.7130,1.8992
0.294,1.7156,1.8957
0.295,1.7182,1.8921
0.296,1.7207,1.8886
0.297,1.7232,1.8850
0.298,1.7257,1.8814
0.299,1.7282,1.8778
0.3,1.7299,1.8741
0.301,1.7314,1.8703
0.302,1.7329,1.8665
0.303,1.7345,1.8626
0.304,1.7360,1.8588
0.305,1.7375,1.8550
0.306,1.7384,1.8512
0.307,1.7389,1.8473
0.308,1.7393,1.8434
0.309,1.7398,1.8396
0.31,1.7402,1.8357
0.311,1.7407,1.8318
0.312,1.7409,1.8280
0.313,1.7403,1.8243
0.314,1.7396,1.8206
0.315,1.7390,1.8169
0.316,1.7383,1.8132
0.317,1.7377,1.8095
0.318,1.7371,1.8058
0.319,1.7356,1.8024
0.32,1.7339,1.7991
0.321,1.7322,1.7958
0.322,1.7305,1.7925
0.323,1.7288,1.7892
0.324,1.7271,1.7859
0.325,1.7252,1.7827
0.326,1.7226,1.7800
0.327,1.7199,1.7774
0.328,1.7172,1.7747
0.329,1.7145,1.7721
0.33,1.7119,1.7694
0.331,1.7092,1.7668
0.332,1.7062,1.7645
0.333,1.7028,1.7627
0.334,1.6993,1.7610
0.335,1.6959,1.7592
0.336,1.6925,1.7574
0.337,1.6890,1.7557
0.338,1.6856,1.7539
0.339,1.6819,1.7526
0.34,1.6780,1.7519
0.341,1.6741,1.7512
0.342,1.6702,1.7505
0.343,1.6662,1.7497
0.344,1.6623,1.7490
0.345,1.6584,1.7483
0.346,1.6544,1.7480
0.347,1.6504,1.7484
0.348,1.6464,1.7487
0.349,1.6423,1.7491
0.35,1.6383,1.7495
0.351,1.6342,1.7498
0.352,1.6302,1.7502
0.353,1.6262,1.7508
0.354,1.6224,1.7521
0.355,1.6186,1.7535
0.356,1.6148,1.7548
0.357,1.6110,1.7562
0.358,1.6072,1.7575
0.359,1.6034,1.7589
0.36,1.5997,1.7602
0.361,1.5964,1.7623
0.362,1.5931,1.7643
0.363,1.5899,1.7664
0.364,1.5867,1.7685
0.365,1.5834,1.7706
0.366,1.5802,1.7727
0.367,1.5770,1.7748
0.368,1.5741,1.7770
0.369,1.5716,1.7795
0.37,1.5691,1.7820
0.371,1.5666,1.7844
0.372,1.5641,1.7869
0.373,1.5617,1.7893
0.374,1.5592,1.7918
0.375,1.5567,1.7942
0.376,1.5548,1.7967
0.377,1.5531,1.7991
0.378,1.5514,1.8015
0.379,1.5497,1.8039
0.38,1.5480,1.8063
0.381,1.5463,1.8087
0.382,1.5446,1.8111
0.383,1.5429,1.8135
0.384,1.5418,1.8155
0.385,1.5407,1.8175
0.386,1.5397,1.8194
0.387,1.5386,1.8214
0.388,1.5375,1.8234
0.389,1.5364,1.8253
0.39,1.5353,1.8273
0.391,1.5343,1.8292
0.392,1.5335,1.8305
0.393,1.5328,1.8317
0.394,1.5320,1.8329
0.395,1.5313,1.8341
0.396,1.5305,1.8353
0.397,1.5298,1.8366
0.398,1.5291,1.8378
0.399,1.5283,1.8390
0.4,1.5275,1.8394
0.401,1.5267,1.8397
0.402,1.5259,1.8400
0.403,1.5252,1.8403
0.404,1.5244,1.8406
0.405,1.5236,1.8409
0.406,1.5228,1.8413
0.407,1.5220,1.8416
0.408,1.5209,1.8413
0.409,1.5197,1.8407
0.41,1.5184,1.8401
0.411,1.5172,1.8394
0.412,1.5159,1.8388
0.413,1.5147,1.8382
0.414,1.5134,1.8376
0.415,1.5122,1.8370
0.416,1.5108,1.8362
0.417,1.5087,1.8348
0.418,1.5066,1.8334
0.419,1.5045,1.8319
0.42,1.5024,1.8305
0.421,1.5003,1.8291
0.422,1.4982,1.8276
0.423,1.4961,1.8262
0.424,1.4940,1.8248
0.425,1.4913,1.8231
0.426,1.4880,1.8211
0.427,1.4848,1.8191
0.428,1.4815,1.8171
0.429,1.4782,1.8151
0.43,1.4749,1.8131
0.431,1.4716,1.8111
0.432,1.4683,1.8091
0.433,1.4650,1.8071
0.434,1.4608,1.8049
0.435,1.4561,1.8027
0.436,1.4513,1.8005
0.437,1.4466,1.7982
0.438,1.4419,1.7960
0.439,1.4372,1.7938
0.44,1.4324,1.7915
0.441,1.4277,1.7893
0.442,1.4230,1.7871
0.443,1.4172,1.7850
0.444,1.4109,1.7829
0.445,1.4046,1.7809
0.446,1.3983,1.7788
0.447,1.3920,1.7767
0.448,1.3856,1.7747
0.449,1.3793,1.7726
0.45,1.3730,1.7706
0.451,1.3667,1.7685
0.452,1.3596,1.7668
0.453,1.3517,1.7653
0.454,1.3438,1.7639
0.455,1.3358,1.7625
0.456,1.3279,1.7611
0.457,1.3199,1.7596
0.458,1.3120,1.7582
0.459,1.3041,1.7568
0.46,1.2961,1.7554
0.461,1.2881,1.7540
0.462,1.2786,1.7537
0.463,1.2691,1.7534
0.464,1.2597,1.7531
0.465,1.2502,1.7528
0.466,1.2408,1.7525
0.467,1.2313,1.7522
0.468,1.2218,1.7519
0.469,1.2124,1.7516
0.47,1.2029,1.7513
0.471,1.1929,1.7518
0.472,1.1822,1.7531
0.473,1.1715,1.7544
0.474,1.1607,1.7557
0.475,1.1500,1.7570
0.476,1.1393,1.7582
0.477,1.1286,1.7595
0.478,1.1179,1.7608
0.479,1.1072,1.7621
0.48,1.0965,1.7634
0.481,1.0853,1.7661
0.482,1.0738,1.7693
0.483,1.0623,1.7726
0.484,1.0508,1.7759
0.485,1.0393,1.7791
0.486,1.0278,1.7824
0.487,1.0163,1.7857
0.488,1.0048,1.7889
0.489,0.99329,1.7922
0.49,0.98179,1.7955
0.491,0.97017,1.8003
0.492,0.95850,1.8057
0.493,0.94683,1.8112
0.494,0.93516,1.8166
0.495,0.92349,1.8221
0.496,0.91182,1.8275
0.497,0.90015,1.8330
0.498,0.88848,1.8384
0.499,0.87681,1.8438
0.5,0.86514,1.8493
0.501,0.85373,1.8558
0.502,0.84255,1.8634
0.503,0.83138,1.8709
0.504,0.82020,1.8785
0.505,0.80903,1.8860
0.506,0.79785,1.8936
0.507,0.78667,1.9012
0.508,0.77550,1.9087
0.509,0.76432,1.9163
0.51,0.75314,1.9238
0.511,0.74209,1.9316
0.512,0.73197,1.9409
0.513,0.72185,1.9502
0.514,0.71173,1.9595
0.515,0.70161,1.9688
0.516,0.69148,1.9782
0.517,0.68136,1.9875
0.518,0.67124,1.9968
0.519,0.66112,2.0061
0.52,0.65100,2.0154
0.521,0.64088,2.0247
0.522,0.63145,2.0347
0.523,0.62271,2.0453
0.524,0.61398,2.0558
0.525,0.60524,2.0664
0.526,0.59651,2.0770
0.527,0.58777,2.0876
0.528,0.57904,2.0981
0.529,0.57030,2.1087
0.53,0.56157,2.1193
0.531,0.55284,2.1299
0.532,0.54410,2.1404
0.533,0.53633,2.1515
0.534,0.52907,2.1628
0.535,0.52181,2.1742
0.536,0.51455,2.1855
0.537,0.50729,2.1968
0.538,0.50003,2.2081
0.539,0.49277,2.2194
0.54,0.48551,2.2308
0.541,0.47825,2.2421
0.542,0.47099,2.2534
0.543,0.46373,2.2647
0.544,0.45728,2.2762
0.545,0.45141,2.2879
0.546,0.44553,2.2995
0.547,0.43966,2.3112
0.548,0.43378,2.3228
0.549,0.42791,2.3345
0.55,0.42203,2.3461
0.551,0.41616,2.3578
0.552,0.41029,2.3694
0.553,0.40441,2.3811
0.554,0.39854,2.3927
0.555,0.39302,2.4044
0.556,0.38835,2.4160
0.557,0.38369,2.4277
0.558,0.37902,2.4394
0.559,0.37436,2.4511
0.56,0.36970,2.4627
0.561,0.36503,2.4744
0.562,0.36037,2.4861
0.563,0.35571,2.4978
0.564,0.35104,2.5094
0.565,0.34638,2.5211
0.566,0.34172,2.5328
0.567,0.33782,2.5443
0.568,0.33417,2.5559
0.569,0.33052,2.5674
0.57,0.32686,2.5789
0.571,0.32321,2.5904
0.572,0.31956,2.6019
0.573,0.31591,2.6134
0.574,0.31226,2.6249
0.575,0.30861,2.6364
0.576,0.30495,2.6480
0.577,0.30130,2.6595
0.578,0.29765,2.6710
0.579,0.29481,2.6822
0.58,0.29198,2.6935
0.581,0.28916,2.7047
0.582,0.28633,2.7160
0.583,0.28350,2.7272
0.584,0.28067,2.7385
0.585,0.27784,2.7497
0.586,0.27502,2.7610
0.587,0.27219,2.7722
0.588,0.26936,2.7834
0.589,0.26653,2.7947
0.59,0.26370,2.8059
0.591,0.26152,2.8169
0.592,0.25935,2.8278
0.593,0.25718,2.8387
0.594,0.25501,2.8496
0.595,0.25284,2.8606
0.596,0.25068,2.8715
0.597,0.24851,2.8824
0.598,0.24634,2.8934
0.599,0.24417,2.9043
0.6,0.24200,2.9152
0.601,0.23984,2.9261
0.602,0.23767,2.9371
0.603,0.23587,2.9477
0.604,0.23423,2.9583
0.605,0.23258,2.9689
0.606,0.23094,2.9795
0.607,0.22930,2.9901
0.608,0.22765,3.0007
0.609,0.22601,3.0113
0.61,0.22437,3.0219
0.611,0.22273,3.0325
0.612,0.22108,3.0431
0.613,0.21944,3.0537
0.614,0.21780,3.0642
0.615,0.21623,3.0748
0.616,0.21500,3.0850
0.617,0.21377,3.0953
0.618,0.21255,3.1056
0.619,0.21132,3.1158
0.62,0.21009,3.1261
0.621,0.20886,3.1363
0.622,0.20764,3.1466
0.623,0.20641,3.1569
0.624,0.20518,3.1671
0.625,0.20395,3.1774
0.626,0.20273,3.1876
0.627,0.20150,3.1979
0.628,0.20040,3.2080
0.629,0.19951,3.2180
0.63,0.19861,3.2279
0.631,0.19771,3.2379
0.632,0.19681,3.2478
0.633,0.19591,3.2578
0.634,0.19501,3.2677
0.635,0.19412,3.2777
0.636,0.19322,3.2876
0.637,0.19232,3.2976
0.638,0.19142,3.3075
0.639,0.19052,3.3174
0.64,0.18963,3.3274
0.641,0.18882,3.3372
0.642,0.18818,3.3469
0.643,0.18755,3.3565
0.644,0.18691,3.3662
0.645,0.18627,3.3758
0.646,0.18563,3.3855
0.647,0.18500,3.3952
0.648,0.18436,3.4048
0.649,0.18372,3.4145
0.65,0.18309,3.4241
0.651,0.18245,3.4338
0.652,0.18181,3.4434
0.653,0.18117,3.4531
0.654,0.18054,3.4627
0.655,0.18011,3.4721
0.656,0.17969,3.4815
0.657,0.17926,3.4909
0.658,0.17883,3.5003
0.659,0.17840,3.5096
0.66,0.17797,3.5190
0.661,0.17754,3.5284
0.662,0.17711,3.5378
0.663,0.17668,3.5472
0.664,0.17625,3.5566
0.665,0.17582,3.5660
0.666,0.17539,3.5753
0.667,0.17496,3.5847
0.668,0.17461,3.5940
0.669,0.17435,3.6031
0.67,0.17408,3.6123
0.671,0.17382,3.6214
0.672,0.17356,3.6306
0.673,0.17330,3.6397
0.674,0.17303,3.6489
0.675,0.17277,3.6580
0.676,0.17251,3.6671
0.677,0.17225,3.6763
0.678,0.17198,3.6854
0.679,0.17172,3.6946
0.68,0.17146,3.7037
0.681,0.17119,3.7128
0.682,0.17101,3.7219
0.683,0.17088,3.7308
0.684,0.17075,3.7397
0.685,0.17062,3.7486
0.686,0.17049,3.7575
0.687,0.17037,3.7665
0.688,0.17024,3.7754
0.689,0.17011,3.7843
0.69,0.16998,3.7932
0.691,0.16985,3.8021
0.692,0.16973,3.8111
0.693,0.16960,3.8200
0.694,0.16947,3.8289
0.695,0.16934,3.8378
0.696,0.16926,3.8467
0.697,0.16924,3.8554
0.698,0.16922,3.8641
0.699,0.16920,3.8728
0.7,0.16918,3.8816
0.701,0.16916,3.8903
0.702,0.16914,3.8990
0.703,0.16912,3.9077
0.704,0.16910,3.9164
0.705,0.16908,3.9252
0.706,0.16906,3.9339
0.707,0.16904,3.9426
0.708,0.16903,3.9513
0.709,0.16901,3.9600
0.71,0.16899,3.9688
0.711,0.16905,3.9773
0.712,0.16912,3.9859
0.713,0.16919,3.9944
0.714,0.16926,4.0029
0.715,0.16933,4.0115
0.716,0.16940,4.0200
0.717,0.16947,4.0286
0.718,0.16954,4.0371
0.719,0.16961,4.0456
0.72,0.16968,4.0542
0.721,0.16975,4.0627
0.722,0.16983,4.0713
0.723,0.16990,4.0798
0.724,0.16997,4.0884
0.725,0.17005,4.0969
0.726,0.17019,4.1052
0.727,0.17034,4.1136
0.728,0.17048,4.1220
0.729,0.17063,4.1304
0.73,0.17077,4.1388
0.731,0.17091,4.1471
0.732,0.17106,4.1555
0.733,0.17120,4.1639
0.734,0.17135,4.1723
0.735,0.17149,4.1806
0.736,0.17163,4.1890
0.737,0.17178,4.1974
0.738,0.17192,4.2058
0.739,0.17207,4.2142
0.74,0.17222,4.2225
0.741,0.17242,4.2307
0.742,0.17263,4.2390
0.743,0.17283,4.2472
0.744,0.17304,4.2554
0.745,0.17325,4.2637
0.746,0.17345,4.2719
0.747,0.17366,4.2801
0.748,0.17386,4.2884
0.749,0.17407,4.2966
0.75,0.17427,4.3048
0.751,0.17448,4.3130
0.752,0.17469,4.3213
0.753,0.17489,4.3295
0.754,0.17510,4.3377
0.755,0.17530,4.3460
0.756,0.17555,4.3541
0.757,0.17580,4.3622
0.758,0.17606,4.3703
0.759,0.17632,4.3784
0.76,0.17658,4.3865
0.761,0.17683,4.3946
0.762,0.17709,4.4027
0.763,0.17735,4.4108
0.764,0.17761,4.4189
0.765,0.17786,4.4269
0.766,0.17812,4.4350
0.767,0.17838,4.4431
0.768,0.17863,4.4512
0.769,0.17889,4.4593
0.77,0.17915,4.4674
0.771,0.17941,4.4755
0.772,0.17971,4.4835
0.773,0.18001,4.4915
0.774,0.18031,4.4994
0.775,0.18061,4.5074
0.776,0.18091,4.5154
0.777,0.18121,4.5234
0.778,0.18151,4.5313
0.779,0.18182,4.5393
0.78,0.18212,4.5473
0.781,0.18242,4.5552
0.782,0.18272,4.5632
0.783,0.18302,4.5712
0.784,0.18332,4.5792
0.785,0.18362,4.5871
0.786,0.18392,4.5951
0.787,0.18422,4.6031
0.788,0.18456,4.6109
0.789,0.18490,4.6188
0.79,0.18524,4.6267
0.791,0.18558,4.6345
0.792,0.18591,4.6424
0.793,0.18625,4.6502
0.794,0.18659,4.6581
0.795,0.18693,4.6660
0.796,0.18727,4.6738
0.797,0.18761,4.6817
0.798,0.18794,4.6895
0.799,0.18828,4.6974
0.8,0.18862,4.7053
0.801,0.18896,4.7131
0.802,0.18930,4.7210
0.803,0.18963,4.7288
0.804,0.18999,4.7366
0.805,0.19036,4.7444
0.806,0.19073,4.7522
0.807,0.19110,4.7599
0.808,0.19147,4.7677
0.809,0.19184,4.7754
0.81,0.19221,4.7832
0.811,0.19258,4.7909
0.812,0.19295,4.7987
0.813,0.19332,4.8065
0.814,0.19369,4.8142
0.815,0.19406,4.8220
0.816,0.19443,4.8297
0.817,0.19480,4.8375
0.818,0.19517,4.8452
0.819,0.19554,4.8530
0.82,0.19591,4.8608
0.821,0.19631,4.8684
0.822,0.19670,4.8761
0.823,0.19710,4.8837
0.824,0.19750,4.8914
0.825,0.19789,4.8991
0.826,0.19829,4.9067
0.827,0.19869,4.9144
0.828,0.19909,4.9221
0.829,0.19948,4.9297
0.83,0.19988,4.9374
0.831,0.20028,4.9450
0.832,0.20067,4.9527
0.833,0.20107,4.9604
0.834,0.20147,4.9680
0.835,0.20187,4.9757
0.836,0.20226,4.9834
0.837,0.20266,4.9910
0.838,0.20308,4.9986
0.839,0.20350,5.0062
0.84,0.20392,5.0138
0.841,0.20434,5.0213
0.842,0.20476,5.0289
0.843,0.20518,5.0365
0.844,0.20560,5.0441
0.845,0.20602,5.0516
0.846,0.20644,5.0592
0.847,0.20686,5.0668
0.848,0.20728,5.0744
0.849,0.20770,5.0819
0.85,0.20812,5.0895
0.851,0.20854,5.0971
0.852,0.20897,5.1047
0.853,0.20939,5.1122
0.854,0.20981,5.1198
0.855,0.21024,5.1273
0.856,0.21068,5.1348
0.857,0.21112,5.1423
0.858,0.21156,5.1498
0.859,0.21200,5.1573
0.86,0.21244,5.1648
0.861,0.21288,5.1723
0.862,0.21332,5.1798
0.863,0.21376,5.1873
0.864,0.21420,5.1948
0.865,0.21464,5.2023
0.866,0.21509,5.2098
0.867,0.21553,5.2173
0.868,0.21597,5.2248
0.869,0.21641,5.2323
0.87,0.21685,5.2398
0.871,0.21729,5.2472
0.872,0.21773,5.2547
0.873,0.21818,5.2622
0.874,0.21864,5.2696
0.875,0.21910,5.2770
0.876,0.21956,5.2844
0.877,0.22002,5.2919
0.878,0.22047,5.2993
0.879,0.22093,5.3067
0.88,0.22139,5.3141
0.881,0.22185,5.3215
0.882,0.22231,5.3290
0.883,0.22277,5.3364
0.884,0.22322,5.3438
0.885,0.22368,5.3512
0.886,0.22414,5.3586
0.887,0.22460,5.3660
0.888,0.22506,5.3735
0.889,0.22551,5.3809
0.89,0.22597,5.3883
0.891,0.22644,5.3957
0.892,0.22691,5.4030
0.893,0.22739,5.4104
0.894,0.22786,5.4177
0.895,0.22833,5.4251
0.896,0.22881,5.4324
0.897,0.22928,5.4398
0.898,0.22975,5.4471
0.899,0.23023,5.4545
0.9,0.23070,5.4618
0.901,0.23117,5.4692
0.902,0.23164,5.4765
0.903,0.23212,5.4839
0.904,0.23259,5.4912
0.905,0.23306,5.4986
0.906,0.23354,5.5059
0.907,0.23401,5.5133
0.908,0.23448,5.5206
0.909,0.23496,5.5280
0.91,0.23544,5.5352
0.911,0.23593,5.5425
0.912,0.23642,5.5498
0.913,0.23690,5.5571
0.914,0.23739,5.5644
0.915,0.23788,5.5717
0.916,0.23836,5.5789
0.917,0.23885,5.5862
0.918,0.23933,5.5935
0.919,0.23982,5.6008
0.92,0.24031,5.6081
0.921,0.24079,5.6154
0.922,0.24128,5.6226
0.923,0.24177,5.6299
0.924,0.24225,5.6372
0.925,0.24274,5.6445
0.926,0.24322,5.6518
0.927,0.24371,5.6591
0.928,0.24420,5.6663
0.929,0.24470,5.6736
0.93,0.24519,5.6808
0.931,0.24569,5.6880
0.932,0.24619,5.6952
0.933,0.24668,5.7025
0.934,0.24718,5.7097
0.935,0.24768,5.7169
0.936,0.24818,5.7241
0.937,0.24867,5.7313
0.938,0.24917,5.7386
0.939,0.24967,5.7458
0.94,0.25017,5.7530
0.941,0.25066,5.7602
0.942,0.25116,5.7675
0.943,0.25166,5.7747
0.944,0.25216,5.7819
0.945,0.25265,5.7891
0.946,0.25315,5.7964
0.947,0.25365,5.8036
0.948,0.25415,5.8108
0.949,0.25466,5.8179
0.95,0.25517,5.8251
0.951,0.25567,5.8323
0.952,0.25618,5.8394
0.953,0.25669,5.8466
0.954,0.25719,5.8537
0.955,0.25770,5.8609
0.956,0.25821,5.8681
0.957,0.25871,5.8752
0.958,0.25922,5.8824
0.959,0.25973,5.8896
0.96,0.26024,5.8967
0.961,0.26074,5.9039
0.962,0.26125,5.9111
0.963,0.26176,5.9182
0.964,0.26226,5.9254
0.965,0.26277,5.9326
0.966,0.26328,5.9397
0.967,0.26378,5.9469
0.968,0.26430,5.9540
0.969,0.26481,5.9611
0.97,0.26533,5.9682
0.971,0.26584,5.9754
0.972,0.26636,5.9825
0.973,0.26687,5.9896
0.974,0.26739,5.9967
0.975,0.26790,6.0038
0.976,0.26842,6.0109
0.977,0.26893,6.0180
0.978,0.26945,6.0251
0.979,0.26996,6.0323
0.98,0.27048,6.0394
0.981,0.27099,6.0465
0.982,0.27151,6.0536
0.983,0.27202,6.0607
0.984,0.27254,6.0678
0.985,0.27305,6.0749
0.986,0.27357,6.0821
0.987,0.27409,6.0892
0.988,0.27461,6.0962
0.989,0.27513,6.1033
0.99,0.27565,6.1104
0.991,0.27617,6.1174
0.992,0.27670,6.1245
0.993,0.27722,6.1315
0.994,0.27774,6.1386
0.995,0.27826,6.1457
0.996,0.27878,6.1527
0.997,0.27930,6.1598
0.998,0.27983,6.1669
0.999,0.28035,6.1739
1,0.28087,6.1810
1.001,0.28139,6.1880
1.002,0.28191,6.1951
1.003,0.28244,6.2022
1.004,0.28296,6.2092
1.005,0.28348,6.2163
1.006,0.28400,6.2234
1.007,0.28452,6.2304
1.008,0.28505,6.2375
1.009,0.28558,6.2445
1.01,0.28610,6.2515
1.011,0.28663,6.2585
1.012,0.28716,6.2655
1.013,0.28769,6.2725
1.014,0.28822,6.2796
1.015,0.28874,6.2866
1.016,0.28927,6.2936
1.017,0.28980,6.3006
1.018,0.29033,6.3076
1.019,0.29085,6.3147
1.02,0.29138,6.3217
1.021,0.29191,6.3287
1.022,0.29244,6.3357
1.023,0.29297,6.3427
1.024,0.29349,6.3497
1.025,0.29402,6.3568
1.026,0.29455,6.3638
1.027,0.29508,6.3708
1.028,0.29560,6.3778
1.029,0.29614,6.3848
1.03,0.29667,6.3918
1.031,0.29720,6.3987
1.032,0.29773,6.4057
1.033,0.29827,6.4127
1.034,0.29880,6.4197
1.035,0.29933,6.4266
1.036,0.29986,6.4336
1.037,0.30040,6.4406
1.038,0.30093,6.4475
1.039,0.30146,6.4545
1.04,0.30199,6.4615
1.041,0.30253,6.4685
1.042,0.30306,6.4754
1.043,0.30359,6.4824
1.044,0.30413,6.4894
1.045,0.30466,6.4964
1.046,0.30519,6.5033
1.047,0.30572,6.5103
1.048,0.30626,6.5173
1.049,0.30679,6.5243
1.05,0.30732,6.5312
1.051,0.30786,6.5381
1.052,0.30840,6.5451
1.053,0.30893,6.5520
1.054,0.30947,6.5589
1.055,0.31001,6.5659
1.056,0.31054,6.5728
1.057,0.31108,6.5797
1.058,0.31162,6.5867
1.059,0.31215,6.5936
1.06,0.31269,6.6005
1.061,0.31323,6.6075
1.062,0.31376,6.6144
1.063,0.31430,6.6213
1.064,0.31484,6.6283
1.065,0.31537,6.6352
1.066,0.31591,6.6421
1.067,0.31645,6.6491
1.068,0.31698,6.6560
1.069,0.31752,6.6629
1.07,0.31806,6.6699
1.071,0.31859,6.6768
1.072,0.31913,6.6837
1.073,0.31967,6.6906
1.074,0.32021,6.6975
1.075,0.32075,6.7044
1.076,0.32129,6.7113
1.077,0.32183,6.7182
1.078,0.32237,6.7251
1.079,0.32291,6.7320
1.08,0.32345,6.7388
1.081,0.32399,6.7457
1.082,0.32453,6.7526
1.083,0.32507,6.7595
1.084,0.32561,6.7664
1.085,0.32615,6.7733
1.086,0.32669,6.7802
1.087,0.32723,6.7871
1.088,0.32777,6.7940
1.089,0.32831,6.8009
1.09,0.32886,6.8078
1.091,0.32940,6.8147
1.092,0.32994,6.8216
1.093,0.33048,6.8285
1.094,0.33102,6.8353
1.095,0.33156,6.8422
1.096,0.33210,6.8491
1.097,0.33264,6.8559
1.098,0.33319,6.8628
1.099,0.33373,6.8696
1.1,0.33427,6.8765
1.101,0.33482,6.8833
1.102,0.33536,6.8902
1.103,0.33590,6.8971
1.104,0.33645,6.9039
1.105,0.33699,6.9108
1.106,0.33753,6.9176
1.107,0.33807,6.9245
1.108,0.33862,6.9313
1.109,0.33916,6.9382
1.11,0.33970,6.9451
1.111,0.34025,6.9519
1.112,0.34079,6.9588
1.113,0.34133,6.9656
1.114,0.34187,6.9725
1.115,0.34242,6.9793
1.116,0.34296,6.9862
1.117,0.34350,6.9930
1.118,0.34405,6.9999
1.119,0.34459,7.0067
1.12,0.34514,7.0135
1.121,0.34568,7.0203
1.122,0.34623,7.0272
1.123,0.34677,7.0340
1.124,0.34732,7.0408
1.125,0.34787,7.0476
1.126,0.34841,7.0545
1.127,0.34896,7.0613
1.128,0.34950,7.0681
1.129,0.35005,7.0749
1.13,0.35059,7.0817
1.131,0.35114,7.0886
1.132,0.35168,7.0954
1.133,0.35223,7.1022
1.134,0.35277,7.1090
1.135,0.35332,7.1159
1.136,0.35386,7.1227
1.137,0.35441,7.1295
1.138,0.35495,7.1363
1.139,0.35550,7.1432
1.14,0.35604,7.1500
1.141,0.35659,7.1568
1.142,0.35714,7.1636
1.143,0.35768,7.1703
1.144,0.35823,7.1771
1.145,0.35878,7.1839
1.146,0.35932,7.1907
1.147,0.35987,7.1975
1.148,0.36042,7.2043
1.149,0.36097,7.2111
1.15,0.36151,7.2179
1.151,0.36206,7.2247
1.152,0.36261,7.2315
1.153,0.36315,7.2383
1.154,0.36370,7.2451
1.155,0.36425,7.2518
1.156,0.36479,7.2586
1.157,0.36534,7.2654
1.158,0.36589,7.2722
1.159,0.36644,7.2790
1.16,0.36698,7.2858
1.161,0.36753,7.2926
1.162,0.36808,7.2994
1.163,0.36862,7.3062
1.164,0.36917,7.3129
1.165,0.36972,7.3197
1.166,0.37027,7.3265
1.167,0.37082,7.3332
1.168,0.37137,7.3400
1.169,0.37191,7.3468
1.17,0.37246,7.3535
