%name:SiO2
%note:Silicon dioxide refractive index on wavelength from 0.25um to 2.5um with step of 1nm
%how to call:getIndex('SiO2',wavelength)
0.25,1.5175,0.00026000
0.251,1.5170,0.00025600
0.252,1.5166,0.00025200
0.253,1.5161,0.00024800
0.254,1.5157,0.00024400
0.255,1.5152,0.00024000
0.256,1.5148,0.00023640
0.257,1.5144,0.00023280
0.258,1.5140,0.00022920
0.259,1.5136,0.00022560
0.26,1.5131,0.00022200
0.261,1.5127,0.00021880
0.262,1.5124,0.00021560
0.263,1.5120,0.00021240
0.264,1.5116,0.00020920
0.265,1.5112,0.00020600
0.266,1.5108,0.00020300
0.267,1.5104,0.00020000
0.268,1.5101,0.00019700
0.269,1.5097,0.00019400
0.27,1.5093,0.00019100
0.271,1.5090,0.00018860
0.272,1.5086,0.00018620
0.273,1.5083,0.00018380
0.274,1.5079,0.00018140
0.275,1.5076,0.00017900
0.276,1.5073,0.00017660
0.277,1.5069,0.00017420
0.278,1.5066,0.00017180
0.279,1.5063,0.00016940
0.28,1.5060,0.00016700
0.281,1.5057,0.00016500
0.282,1.5053,0.00016300
0.283,1.5050,0.00016100
0.284,1.5047,0.00015900
0.285,1.5044,0.00015700
0.286,1.5041,0.00015520
0.287,1.5038,0.00015340
0.288,1.5035,0.00015160
0.289,1.5033,0.00014980
0.29,1.5030,0.00014800
0.291,1.5027,0.00014620
0.292,1.5024,0.00014440
0.293,1.5021,0.00014260
0.294,1.5019,0.00014080
0.295,1.5016,0.00013900
0.296,1.5013,0.00013760
0.297,1.5011,0.00013620
0.298,1.5008,0.00013480
0.299,1.5005,0.00013340
0.3,1.5003,0.00013200
0.301,1.5000,0.00013060
0.302,1.4998,0.00012920
0.303,1.4995,0.00012780
0.304,1.4993,0.00012640
0.305,1.4991,0.00012500
0.306,1.4988,0.00012360
0.307,1.4986,0.00012220
0.308,1.4984,0.00012080
0.309,1.4981,0.00011940
0.31,1.4979,0.00011800
0.311,1.4977,0.00011680
0.312,1.4974,0.00011560
0.313,1.4972,0.00011440
0.314,1.4970,0.00011320
0.315,1.4968,0.00011200
0.316,1.4966,0.00011100
0.317,1.4964,0.00011000
0.318,1.4961,0.00010900
0.319,1.4959,0.00010800
0.32,1.4957,0.00010700
0.321,1.4955,0.00010600
0.322,1.4953,0.00010500
0.323,1.4951,0.00010400
0.324,1.4949,0.00010300
0.325,1.4947,0.00010200
0.326,1.4945,0.000081600
0.327,1.4943,0.000061200
0.328,1.4941,0.000040800
0.329,1.4940,0.000020400
0.33,1.4938,0.0000
0.331,1.4936,0.0000
0.332,1.4934,0.0000
0.333,1.4932,0.0000
0.334,1.4930,0.0000
0.335,1.4928,0.0000
0.336,1.4927,0.0000
0.337,1.4925,0.0000
0.338,1.4923,0.0000
0.339,1.4922,0.0000
0.34,1.4920,0.0000
0.341,1.4918,0.0000
0.342,1.4916,0.0000
0.343,1.4915,0.0000
0.344,1.4913,0.0000
0.345,1.4912,0.0000
0.346,1.4910,0.0000
0.347,1.4908,0.0000
0.348,1.4907,0.0000
0.349,1.4905,0.0000
0.35,1.4904,0.0000
0.351,1.4902,0.0000
0.352,1.4901,0.0000
0.353,1.4899,0.0000
0.354,1.4898,0.0000
0.355,1.4896,0.0000
0.356,1.4895,0.0000
0.357,1.4893,0.0000
0.358,1.4892,0.0000
0.359,1.4890,0.0000
0.36,1.4889,0.0000
0.361,1.4887,0.0000
0.362,1.4886,0.0000
0.363,1.4885,0.0000
0.364,1.4883,0.0000
0.365,1.4882,0.0000
0.366,1.4881,0.0000
0.367,1.4879,0.0000
0.368,1.4878,0.0000
0.369,1.4877,0.0000
0.37,1.4875,0.0000
0.371,1.4874,0.0000
0.372,1.4873,0.0000
0.373,1.4871,0.0000
0.374,1.4870,0.0000
0.375,1.4869,0.0000
0.376,1.4868,0.0000
0.377,1.4866,0.0000
0.378,1.4865,0.0000
0.379,1.4864,0.0000
0.38,1.4863,0.0000
0.381,1.4862,0.0000
0.382,1.4860,0.0000
0.383,1.4859,0.0000
0.384,1.4858,0.0000
0.385,1.4857,0.0000
0.386,1.4856,0.0000
0.387,1.4855,0.0000
0.388,1.4854,0.0000
0.389,1.4852,0.0000
0.39,1.4851,0.0000
0.391,1.4850,0.0000
0.392,1.4849,0.0000
0.393,1.4848,0.0000
0.394,1.4847,0.0000
0.395,1.4846,0.0000
0.396,1.4845,0.0000
0.397,1.4844,0.0000
0.398,1.4843,0.0000
0.399,1.4842,0.0000
0.4,1.4841,0.0000
0.401,1.4840,0.0000
0.402,1.4839,0.0000
0.403,1.4838,0.0000
0.404,1.4837,0.0000
0.405,1.4836,0.0000
0.406,1.4835,0.0000
0.407,1.4834,0.0000
0.408,1.4833,0.0000
0.409,1.4832,0.0000
0.41,1.4831,0.0000
0.411,1.4830,0.0000
0.412,1.4829,0.0000
0.413,1.4828,0.0000
0.414,1.4827,0.0000
0.415,1.4826,0.0000
0.416,1.4826,0.0000
0.417,1.4825,0.0000
0.418,1.4824,0.0000
0.419,1.4823,0.0000
0.42,1.4822,0.0000
0.421,1.4821,0.0000
0.422,1.4820,0.0000
0.423,1.4819,0.0000
0.424,1.4819,0.0000
0.425,1.4818,0.0000
0.426,1.4817,0.0000
0.427,1.4816,0.0000
0.428,1.4815,0.0000
0.429,1.4814,0.0000
0.43,1.4814,0.0000
0.431,1.4813,0.0000
0.432,1.4812,0.0000
0.433,1.4811,0.0000
0.434,1.4810,0.0000
0.435,1.4810,0.0000
0.436,1.4809,0.0000
0.437,1.4808,0.0000
0.438,1.4807,0.0000
0.439,1.4807,0.0000
0.44,1.4806,0.0000
0.441,1.4805,0.0000
0.442,1.4804,0.0000
0.443,1.4804,0.0000
0.444,1.4803,0.0000
0.445,1.4802,0.0000
0.446,1.4801,0.0000
0.447,1.4801,0.0000
0.448,1.4800,0.0000
0.449,1.4799,0.0000
0.45,1.4798,0.0000
0.451,1.4798,0.0000
0.452,1.4797,0.0000
0.453,1.4796,0.0000
0.454,1.4796,0.0000
0.455,1.4795,0.0000
0.456,1.4794,0.0000
0.457,1.4794,0.0000
0.458,1.4793,0.0000
0.459,1.4792,0.0000
0.46,1.4792,0.0000
0.461,1.4791,0.0000
0.462,1.4790,0.0000
0.463,1.4790,0.0000
0.464,1.4789,0.0000
0.465,1.4788,0.0000
0.466,1.4788,0.0000
0.467,1.4787,0.0000
0.468,1.4787,0.0000
0.469,1.4786,0.0000
0.47,1.4785,0.0000
0.471,1.4785,0.0000
0.472,1.4784,0.0000
0.473,1.4783,0.0000
0.474,1.4783,0.0000
0.475,1.4782,0.0000
0.476,1.4782,0.0000
0.477,1.4781,0.0000
0.478,1.4780,0.0000
0.479,1.4780,0.0000
0.48,1.4779,0.0000
0.481,1.4779,0.0000
0.482,1.4778,0.0000
0.483,1.4778,0.0000
0.484,1.4777,0.0000
0.485,1.4776,0.0000
0.486,1.4776,0.0000
0.487,1.4775,0.0000
0.488,1.4775,0.0000
0.489,1.4774,0.0000
0.49,1.4774,0.0000
0.491,1.4773,0.0000
0.492,1.4773,0.0000
0.493,1.4772,0.0000
0.494,1.4772,0.0000
0.495,1.4771,0.0000
0.496,1.4771,0.0000
0.497,1.4770,0.0000
0.498,1.4770,0.0000
0.499,1.4769,0.0000
0.5,1.4768,0.0000
0.501,1.4768,0.0000
0.502,1.4767,0.0000
0.503,1.4767,0.0000
0.504,1.4766,0.0000
0.505,1.4766,0.0000
0.506,1.4766,0.0000
0.507,1.4765,0.0000
0.508,1.4765,0.0000
0.509,1.4764,0.0000
0.51,1.4764,0.0000
0.511,1.4763,0.0000
0.512,1.4763,0.0000
0.513,1.4762,0.0000
0.514,1.4762,0.0000
0.515,1.4761,0.0000
0.516,1.4761,0.0000
0.517,1.4760,0.0000
0.518,1.4760,0.0000
0.519,1.4759,0.0000
0.52,1.4759,0.0000
0.521,1.4758,0.0000
0.522,1.4758,0.0000
0.523,1.4758,0.0000
0.524,1.4757,0.0000
0.525,1.4757,0.0000
0.526,1.4756,0.0000
0.527,1.4756,0.0000
0.528,1.4755,0.0000
0.529,1.4755,0.0000
0.53,1.4755,0.0000
0.531,1.4754,0.0000
0.532,1.4754,0.0000
0.533,1.4753,0.0000
0.534,1.4753,0.0000
0.535,1.4752,0.0000
0.536,1.4752,0.0000
0.537,1.4752,0.0000
0.538,1.4751,0.0000
0.539,1.4751,0.0000
0.54,1.4750,0.0000
0.541,1.4750,0.0000
0.542,1.4750,0.0000
0.543,1.4749,0.0000
0.544,1.4749,0.0000
0.545,1.4748,0.0000
0.546,1.4748,0.0000
0.547,1.4748,0.0000
0.548,1.4747,0.0000
0.549,1.4747,0.0000
0.55,1.4747,0.0000
0.551,1.4746,0.0000
0.552,1.4746,0.0000
0.553,1.4745,0.0000
0.554,1.4745,0.0000
0.555,1.4745,0.0000
0.556,1.4744,0.0000
0.557,1.4744,0.0000
0.558,1.4744,0.0000
0.559,1.4743,0.0000
0.56,1.4743,0.0000
0.561,1.4742,0.0000
0.562,1.4742,0.0000
0.563,1.4742,0.0000
0.564,1.4741,0.0000
0.565,1.4741,0.0000
0.566,1.4741,0.0000
0.567,1.4740,0.0000
0.568,1.4740,0.0000
0.569,1.4740,0.0000
0.57,1.4739,0.0000
0.571,1.4739,0.0000
0.572,1.4739,0.0000
0.573,1.4738,0.0000
0.574,1.4738,0.0000
0.575,1.4738,0.0000
0.576,1.4737,0.0000
0.577,1.4737,0.0000
0.578,1.4737,0.0000
0.579,1.4736,0.0000
0.58,1.4736,0.0000
0.581,1.4736,0.0000
0.582,1.4735,0.0000
0.583,1.4735,0.0000
0.584,1.4735,0.0000
0.585,1.4734,0.0000
0.586,1.4734,0.0000
0.587,1.4734,0.0000
0.588,1.4733,0.0000
0.589,1.4733,0.0000
0.59,1.4733,0.0000
0.591,1.4733,0.0000
0.592,1.4732,0.0000
0.593,1.4732,0.0000
0.594,1.4732,0.0000
0.595,1.4731,0.0000
0.596,1.4731,0.0000
0.597,1.4731,0.0000
0.598,1.4730,0.0000
0.599,1.4730,0.0000
0.6,1.4730,0.0000
0.601,1.4730,0.0000
0.602,1.4729,0.0000
0.603,1.4729,0.0000
0.604,1.4729,0.0000
0.605,1.4728,0.0000
0.606,1.4728,0.0000
0.607,1.4728,0.0000
0.608,1.4728,0.0000
0.609,1.4727,0.0000
0.61,1.4727,0.0000
0.611,1.4727,0.0000
0.612,1.4727,0.0000
0.613,1.4726,0.0000
0.614,1.4726,0.0000
0.615,1.4726,0.0000
0.616,1.4725,0.0000
0.617,1.4725,0.0000
0.618,1.4725,0.0000
0.619,1.4725,0.0000
0.62,1.4724,0.0000
0.621,1.4724,0.0000
0.622,1.4724,0.0000
0.623,1.4724,0.0000
0.624,1.4723,0.0000
0.625,1.4723,0.0000
0.626,1.4723,0.0000
0.627,1.4723,0.0000
0.628,1.4722,0.0000
0.629,1.4722,0.0000
0.63,1.4722,0.0000
0.631,1.4722,0.0000
0.632,1.4721,0.0000
0.633,1.4721,0.0000
0.634,1.4721,0.0000
0.635,1.4721,0.0000
0.636,1.4720,0.0000
0.637,1.4720,0.0000
0.638,1.4720,0.0000
0.639,1.4720,0.0000
0.64,1.4719,0.0000
0.641,1.4719,0.0000
0.642,1.4719,0.0000
0.643,1.4719,0.0000
0.644,1.4718,0.0000
0.645,1.4718,0.0000
0.646,1.4718,0.0000
0.647,1.4718,0.0000
0.648,1.4717,0.0000
0.649,1.4717,0.0000
0.65,1.4717,0.0000
0.651,1.4717,0.0000
0.652,1.4717,0.0000
0.653,1.4716,0.0000
0.654,1.4716,0.0000
0.655,1.4716,0.0000
0.656,1.4716,0.0000
0.657,1.4715,0.0000
0.658,1.4715,0.0000
0.659,1.4715,0.0000
0.66,1.4715,0.0000
0.661,1.4715,0.0000
0.662,1.4714,0.0000
0.663,1.4714,0.0000
0.664,1.4714,0.0000
0.665,1.4714,0.0000
0.666,1.4714,0.0000
0.667,1.4713,0.0000
0.668,1.4713,0.0000
0.669,1.4713,0.0000
0.67,1.4713,0.0000
0.671,1.4712,0.0000
0.672,1.4712,0.0000
0.673,1.4712,0.0000
0.674,1.4712,0.0000
0.675,1.4712,0.0000
0.676,1.4711,0.0000
0.677,1.4711,0.0000
0.678,1.4711,0.0000
0.679,1.4711,0.0000
0.68,1.4711,0.0000
0.681,1.4710,0.0000
0.682,1.4710,0.0000
0.683,1.4710,0.0000
0.684,1.4710,0.0000
0.685,1.4710,0.0000
0.686,1.4709,0.0000
0.687,1.4709,0.0000
0.688,1.4709,0.0000
0.689,1.4709,0.0000
0.69,1.4709,0.0000
0.691,1.4709,0.0000
0.692,1.4708,0.0000
0.693,1.4708,0.0000
0.694,1.4708,0.0000
0.695,1.4708,0.0000
0.696,1.4708,0.0000
0.697,1.4707,0.0000
0.698,1.4707,0.0000
0.699,1.4707,0.0000
0.7,1.4707,0.0000
0.701,1.4707,0.0000
0.702,1.4707,0.0000
0.703,1.4706,0.0000
0.704,1.4706,0.0000
0.705,1.4706,0.0000
0.706,1.4706,0.0000
0.707,1.4706,0.0000
0.708,1.4705,0.0000
0.709,1.4705,0.0000
0.71,1.4705,0.0000
0.711,1.4705,0.0000
0.712,1.4705,0.0000
0.713,1.4705,0.0000
0.714,1.4704,0.0000
0.715,1.4704,0.0000
0.716,1.4704,0.0000
0.717,1.4704,0.0000
0.718,1.4704,0.0000
0.719,1.4704,0.0000
0.72,1.4703,0.0000
0.721,1.4703,0.0000
0.722,1.4703,0.0000
0.723,1.4703,0.0000
0.724,1.4703,0.0000
0.725,1.4703,0.0000
0.726,1.4702,0.0000
0.727,1.4702,0.0000
0.728,1.4702,0.0000
0.729,1.4702,0.0000
0.73,1.4702,0.0000
0.731,1.4702,0.0000
0.732,1.4701,0.0000
0.733,1.4701,0.0000
0.734,1.4701,0.0000
0.735,1.4701,0.0000
0.736,1.4701,0.0000
0.737,1.4701,0.0000
0.738,1.4700,0.0000
0.739,1.4700,0.0000
0.74,1.4700,0.0000
0.741,1.4700,0.0000
0.742,1.4700,0.0000
0.743,1.4700,0.0000
0.744,1.4700,0.0000
0.745,1.4699,0.0000
0.746,1.4699,0.0000
0.747,1.4699,0.0000
0.748,1.4699,0.0000
0.749,1.4699,0.0000
0.75,1.4699,0.0000
0.751,1.4699,0.0000
0.752,1.4698,0.0000
0.753,1.4698,0.0000
0.754,1.4698,0.0000
0.755,1.4698,0.0000
0.756,1.4698,0.0000
0.757,1.4698,0.0000
0.758,1.4698,0.0000
0.759,1.4697,0.0000
0.76,1.4697,0.0000
0.761,1.4697,0.0000
0.762,1.4697,0.0000
0.763,1.4697,0.0000
0.764,1.4697,0.0000
0.765,1.4697,0.0000
0.766,1.4696,0.0000
0.767,1.4696,0.0000
0.768,1.4696,0.0000
0.769,1.4696,0.0000
0.77,1.4696,0.0000
0.771,1.4696,0.0000
0.772,1.4696,0.0000
0.773,1.4695,0.0000
0.774,1.4695,0.0000
0.775,1.4695,0.0000
0.776,1.4695,0.0000
0.777,1.4695,0.0000
0.778,1.4695,0.0000
0.779,1.4695,0.0000
0.78,1.4695,0.0000
0.781,1.4694,0.0000
0.782,1.4694,0.0000
0.783,1.4694,0.0000
0.784,1.4694,0.0000
0.785,1.4694,0.0000
0.786,1.4694,0.0000
0.787,1.4694,0.0000
0.788,1.4693,0.0000
0.789,1.4693,0.0000
0.79,1.4693,0.0000
0.791,1.4693,0.0000
0.792,1.4693,0.0000
0.793,1.4693,0.0000
0.794,1.4693,0.0000
0.795,1.4693,0.0000
0.796,1.4692,0.0000
0.797,1.4692,0.0000
0.798,1.4692,0.0000
0.799,1.4692,0.0000
0.8,1.4692,0.0000
0.801,1.4692,0.0000
0.802,1.4692,0.0000
0.803,1.4692,0.0000
0.804,1.4692,0.0000
0.805,1.4691,0.0000
0.806,1.4691,0.0000
0.807,1.4691,0.0000
0.808,1.4691,0.0000
0.809,1.4691,0.0000
0.81,1.4691,0.0000
0.811,1.4691,0.0000
0.812,1.4691,0.0000
0.813,1.4690,0.0000
0.814,1.4690,0.0000
0.815,1.4690,0.0000
0.816,1.4690,0.0000
0.817,1.4690,0.0000
0.818,1.4690,0.0000
0.819,1.4690,0.0000
0.82,1.4690,0.0000
0.821,1.4690,0.0000
0.822,1.4689,0.0000
0.823,1.4689,0.0000
0.824,1.4689,0.0000
0.825,1.4689,0.0000
0.826,1.4689,0.0000
0.827,1.4689,0.0000
0.828,1.4689,0.0000
0.829,1.4689,0.0000
0.83,1.4689,0.0000
0.831,1.4688,0.0000
0.832,1.4688,0.0000
0.833,1.4688,0.0000
0.834,1.4688,0.0000
0.835,1.4688,0.0000
0.836,1.4688,0.0000
0.837,1.4688,0.0000
0.838,1.4688,0.0000
0.839,1.4688,0.0000
0.84,1.4687,0.0000
0.841,1.4687,0.0000
0.842,1.4687,0.0000
0.843,1.4687,0.0000
0.844,1.4687,0.0000
0.845,1.4687,0.0000
0.846,1.4687,0.0000
0.847,1.4687,0.0000
0.848,1.4687,0.0000
0.849,1.4687,0.0000
0.85,1.4686,0.0000
0.851,1.4686,0.0000
0.852,1.4686,0.0000
0.853,1.4686,0.0000
0.854,1.4686,0.0000
0.855,1.4686,0.0000
0.856,1.4686,0.0000
0.857,1.4686,0.0000
0.858,1.4686,0.0000
0.859,1.4686,0.0000
0.86,1.4685,0.0000
0.861,1.4685,0.0000
0.862,1.4685,0.0000
0.863,1.4685,0.0000
0.864,1.4685,0.0000
0.865,1.4685,0.0000
0.866,1.4685,0.0000
0.867,1.4685,0.0000
0.868,1.4685,0.0000
0.869,1.4685,0.0000
0.87,1.4685,0.0000
0.871,1.4684,0.0000
0.872,1.4684,0.0000
0.873,1.4684,0.0000
0.874,1.4684,0.0000
0.875,1.4684,0.0000
0.876,1.4684,0.0000
0.877,1.4684,0.0000
0.878,1.4684,0.0000
0.879,1.4684,0.0000
0.88,1.4684,0.0000
0.881,1.4684,0.0000
0.882,1.4683,0.0000
0.883,1.4683,0.0000
0.884,1.4683,0.0000
0.885,1.4683,0.0000
0.886,1.4683,0.0000
0.887,1.4683,0.0000
0.888,1.4683,0.0000
0.889,1.4683,0.0000
0.89,1.4683,0.0000
0.891,1.4683,0.0000
0.892,1.4683,0.0000
0.893,1.4682,0.0000
0.894,1.4682,0.0000
0.895,1.4682,0.0000
0.896,1.4682,0.0000
0.897,1.4682,0.0000
0.898,1.4682,0.0000
0.899,1.4682,0.0000
0.9,1.4682,0.0000
0.901,1.4682,0.0000
0.902,1.4682,0.0000
0.903,1.4682,0.0000
0.904,1.4682,0.0000
0.905,1.4681,0.0000
0.906,1.4681,0.0000
0.907,1.4681,0.0000
0.908,1.4681,0.0000
0.909,1.4681,0.0000
0.91,1.4681,0.0000
0.911,1.4681,0.0000
0.912,1.4681,0.0000
0.913,1.4681,0.0000
0.914,1.4681,0.0000
0.915,1.4681,0.0000
0.916,1.4681,0.0000
0.917,1.4680,0.0000
0.918,1.4680,0.0000
0.919,1.4680,0.0000
0.92,1.4680,0.0000
0.921,1.4680,0.0000
0.922,1.4680,0.0000
0.923,1.4680,0.0000
0.924,1.4680,0.0000
0.925,1.4680,0.0000
0.926,1.4680,0.0000
0.927,1.4680,0.0000
0.928,1.4680,0.0000
0.929,1.4679,0.0000
0.93,1.4679,0.0000
0.931,1.4679,0.0000
0.932,1.4679,0.0000
0.933,1.4679,0.0000
0.934,1.4679,0.0000
0.935,1.4679,0.0000
0.936,1.4679,0.0000
0.937,1.4679,0.0000
0.938,1.4679,0.0000
0.939,1.4679,0.0000
0.94,1.4679,0.0000
0.941,1.4679,0.0000
0.942,1.4679,0.0000
0.943,1.4678,0.0000
0.944,1.4678,0.0000
0.945,1.4678,0.0000
0.946,1.4678,0.0000
0.947,1.4678,0.0000
0.948,1.4678,0.0000
0.949,1.4678,0.0000
0.95,1.4678,0.0000
0.951,1.4678,0.0000
0.952,1.4678,0.0000
0.953,1.4678,0.0000
0.954,1.4678,0.0000
0.955,1.4678,0.0000
0.956,1.4678,0.0000
0.957,1.4677,0.0000
0.958,1.4677,0.0000
0.959,1.4677,0.0000
0.96,1.4677,0.0000
0.961,1.4677,0.0000
0.962,1.4677,0.0000
0.963,1.4677,0.0000
0.964,1.4677,0.0000
0.965,1.4677,0.0000
0.966,1.4677,0.0000
0.967,1.4677,0.0000
0.968,1.4677,0.0000
0.969,1.4677,0.0000
0.97,1.4677,0.0000
0.971,1.4676,0.0000
0.972,1.4676,0.0000
0.973,1.4676,0.0000
0.974,1.4676,0.0000
0.975,1.4676,0.0000
0.976,1.4676,0.0000
0.977,1.4676,0.0000
0.978,1.4676,0.0000
0.979,1.4676,0.0000
0.98,1.4676,0.0000
0.981,1.4676,0.0000
0.982,1.4676,0.0000
0.983,1.4676,0.0000
0.984,1.4676,0.0000
0.985,1.4676,0.0000
0.986,1.4675,0.0000
0.987,1.4675,0.0000
0.988,1.4675,0.0000
0.989,1.4675,0.0000
0.99,1.4675,0.0000
0.991,1.4675,0.0000
0.992,1.4675,0.0000
0.993,1.4675,0.0000
0.994,1.4675,0.0000
0.995,1.4675,0.0000
0.996,1.4675,0.0000
0.997,1.4675,0.0000
0.998,1.4675,0.0000
0.999,1.4675,0.0000
1,1.4675,0.0000
1.001,1.4675,0.0000
1.002,1.4674,0.0000
1.003,1.4674,0.0000
1.004,1.4674,0.0000
1.005,1.4674,0.0000
1.006,1.4674,0.0000
1.007,1.4674,0.0000
1.008,1.4674,0.0000
1.009,1.4674,0.0000
1.01,1.4674,0.0000
1.011,1.4674,0.0000
1.012,1.4674,0.0000
1.013,1.4674,0.0000
1.014,1.4674,0.0000
1.015,1.4674,0.0000
1.016,1.4674,0.0000
1.017,1.4674,0.0000
1.018,1.4674,0.0000
1.019,1.4673,0.0000
1.02,1.4673,0.0000
1.021,1.4673,0.0000
1.022,1.4673,0.0000
1.023,1.4673,0.0000
1.024,1.4673,0.0000
1.025,1.4673,0.0000
1.026,1.4673,0.0000
1.027,1.4673,0.0000
1.028,1.4673,0.0000
1.029,1.4673,0.0000
1.03,1.4673,0.0000
1.031,1.4673,0.0000
1.032,1.4673,0.0000
1.033,1.4673,0.0000
1.034,1.4673,0.0000
1.035,1.4673,0.0000
1.036,1.4672,0.0000
1.037,1.4672,0.0000
1.038,1.4672,0.0000
1.039,1.4672,0.0000
1.04,1.4672,0.0000
1.041,1.4672,0.0000
1.042,1.4672,0.0000
1.043,1.4672,0.0000
1.044,1.4672,0.0000
1.045,1.4672,0.0000
1.046,1.4672,0.0000
1.047,1.4672,0.0000
1.048,1.4672,0.0000
1.049,1.4672,0.0000
1.05,1.4672,0.0000
1.051,1.4672,0.0000
1.052,1.4672,0.0000
1.053,1.4672,0.0000
1.054,1.4672,0.0000
1.055,1.4671,0.0000
1.056,1.4671,0.0000
1.057,1.4671,0.0000
1.058,1.4671,0.0000
1.059,1.4671,0.0000
1.06,1.4671,0.0000
1.061,1.4671,0.0000
1.062,1.4671,0.0000
1.063,1.4671,0.0000
1.064,1.4671,0.0000
1.065,1.4671,0.0000
1.066,1.4671,0.0000
1.067,1.4671,0.0000
1.068,1.4671,0.0000
1.069,1.4671,0.0000
1.07,1.4671,0.0000
1.071,1.4671,0.0000
1.072,1.4671,0.0000
1.073,1.4671,0.0000
1.074,1.4670,0.0000
1.075,1.4670,0.0000
1.076,1.4670,0.0000
1.077,1.4670,0.0000
1.078,1.4670,0.0000
1.079,1.4670,0.0000
1.08,1.4670,0.0000
1.081,1.4670,0.0000
1.082,1.4670,0.0000
1.083,1.4670,0.0000
1.084,1.4670,0.0000
1.085,1.4670,0.0000
1.086,1.4670,0.0000
1.087,1.4670,0.0000
1.088,1.4670,0.0000
1.089,1.4670,0.0000
1.09,1.4670,0.0000
1.091,1.4670,0.0000
1.092,1.4670,0.0000
1.093,1.4670,0.0000
1.094,1.4670,0.0000
1.095,1.4669,0.0000
1.096,1.4669,0.0000
1.097,1.4669,0.0000
1.098,1.4669,0.0000
1.099,1.4669,0.0000
1.1,1.4669,0.0000
1.101,1.4669,0.0000
1.102,1.4669,0.0000
1.103,1.4669,0.0000
1.104,1.4669,0.0000
1.105,1.4669,0.0000
1.106,1.4669,0.0000
1.107,1.4669,0.0000
1.108,1.4669,0.0000
1.109,1.4669,0.0000
1.11,1.4669,0.0000
1.111,1.4669,0.0000
1.112,1.4669,0.0000
1.113,1.4669,0.0000
1.114,1.4669,0.0000
1.115,1.4669,0.0000
1.116,1.4669,0.0000
1.117,1.4668,0.0000
1.118,1.4668,0.0000
1.119,1.4668,0.0000
1.12,1.4668,0.0000
1.121,1.4668,0.0000
1.122,1.4668,0.0000
1.123,1.4668,0.0000
1.124,1.4668,0.0000
1.125,1.4668,0.0000
1.126,1.4668,0.0000
1.127,1.4668,0.0000
1.128,1.4668,0.0000
1.129,1.4668,0.0000
1.13,1.4668,0.0000
1.131,1.4668,0.0000
1.132,1.4668,0.0000
1.133,1.4668,0.0000
1.134,1.4668,0.0000
1.135,1.4668,0.0000
1.136,1.4668,0.0000
1.137,1.4668,0.0000
1.138,1.4668,0.0000
1.139,1.4668,0.0000
1.14,1.4667,0.0000
1.141,1.4667,0.0000
1.142,1.4667,0.0000
1.143,1.4667,0.0000
1.144,1.4667,0.0000
1.145,1.4667,0.0000
1.146,1.4667,0.0000
1.147,1.4667,0.0000
1.148,1.4667,0.0000
1.149,1.4667,0.0000
1.15,1.4667,0.0000
1.151,1.4667,0.0000
1.152,1.4667,0.0000
1.153,1.4667,0.0000
1.154,1.4667,0.0000
1.155,1.4667,0.0000
1.156,1.4667,0.0000
1.157,1.4667,0.0000
1.158,1.4667,0.0000
1.159,1.4667,0.0000
1.16,1.4667,0.0000
1.161,1.4667,0.0000
1.162,1.4667,0.0000
1.163,1.4667,0.0000
1.164,1.4667,0.0000
1.165,1.4666,0.0000
1.166,1.4666,0.0000
1.167,1.4666,0.0000
1.168,1.4666,0.0000
1.169,1.4666,0.0000
1.17,1.4666,0.0000
1.171,1.4666,0.0000
1.172,1.4666,0.0000
1.173,1.4666,0.0000
1.174,1.4666,0.0000
1.175,1.4666,0.0000
1.176,1.4666,0.0000
1.177,1.4666,0.0000
1.178,1.4666,0.0000
1.179,1.4666,0.0000
1.18,1.4666,0.0000
1.181,1.4666,0.0000
1.182,1.4666,0.0000
1.183,1.4666,0.0000
1.184,1.4666,0.0000
1.185,1.4666,0.0000
1.186,1.4666,0.0000
1.187,1.4666,0.0000
1.188,1.4666,0.0000
1.189,1.4666,0.0000
1.19,1.4666,0.0000
1.191,1.4666,0.0000
1.192,1.4665,0.0000
1.193,1.4665,0.0000
1.194,1.4665,0.0000
1.195,1.4665,0.0000
1.196,1.4665,0.0000
1.197,1.4665,0.0000
1.198,1.4665,0.0000
1.199,1.4665,0.0000
1.2,1.4665,0.0000
1.201,1.4665,0.0000
1.202,1.4665,0.0000
1.203,1.4665,0.0000
1.204,1.4665,0.0000
1.205,1.4665,0.0000
1.206,1.4665,0.0000
1.207,1.4665,0.0000
1.208,1.4665,0.0000
1.209,1.4665,0.0000
1.21,1.4665,0.0000
1.211,1.4665,0.0000
1.212,1.4665,0.0000
1.213,1.4665,0.0000
1.214,1.4665,0.0000
1.215,1.4665,0.0000
1.216,1.4665,0.0000
1.217,1.4665,0.0000
1.218,1.4665,0.0000
1.219,1.4665,0.0000
1.22,1.4665,0.0000
1.221,1.4664,0.0000
1.222,1.4664,0.0000
1.223,1.4664,0.0000
1.224,1.4664,0.0000
1.225,1.4664,0.0000
1.226,1.4664,0.0000
1.227,1.4664,0.0000
1.228,1.4664,0.0000
1.229,1.4664,0.0000
1.23,1.4664,0.0000
1.231,1.4664,0.0000
